20170103	69.32	69.32	67.54	68.17	336300
20170104	68.07	69.75	68.07	69.30	418800
20170105	68.82	69.46	68.36	68.59	356400
20170106	68.64	69.05	68.21	68.62	282800
20170109	68.62	69.46	68.22	68.78	374100
20170110	68.46	68.70	67.96	67.98	161500
20170111	68.18	68.48	67.94	68.19	193100
20170112	68.29	68.86	67.55	68.46	184300
20170113	68.44	68.91	68.18	68.62	188900
20170117	68.04	68.92	68.02	68.47	270200
20170118	68.54	68.90	68.17	68.60	261000
20170119	68.75	68.79	67.64	67.90	374700
20170120	67.56	67.69	66.79	66.88	347300
20170123	67.10	67.71	66.69	67.64	384600
20170124	67.95	68.94	67.95	68.65	266000
20170125	68.48	69.03	68.28	68.55	267000
20170126	68.51	68.78	67.64	68.45	275500
20170127	68.52	68.61	68.06	68.56	320400
20170130	68.51	68.86	67.60	68.20	342000
20170131	68.32	68.74	67.78	68.42	669400
20170201	68.72	69.43	68.49	69.33	446900
20170202	69.20	69.20	68.46	68.76	325700
20170203	69.17	69.51	68.92	69.18	278200
20170206	68.94	69.40	68.56	68.77	254500
20170207	68.77	68.89	68.12	68.19	360800
20170208	68.09	69.10	67.92	68.96	397300
20170209	68.79	69.33	68.60	68.98	438000
20170210	69.58	71.45	69.58	70.13	1160100
20170213	70.53	70.73	69.72	69.79	440000
20170214	69.76	69.76	69.12	69.23	432000
20170215	69.23	69.31	68.32	68.63	522800
20170216	68.82	69.60	68.82	69.57	267000
20170217	69.78	69.90	68.89	69.29	318600
20170221	69.30	70.00	69.25	69.94	188600
20170222	69.70	70.14	69.33	69.63	204500
20170223	69.83	69.91	69.42	69.50	250600
20170224	69.18	69.84	69.05	69.72	232400
20170227	69.48	70.34	69.48	69.83	251800
20170228	69.64	69.99	69.34	69.86	390200
20170301	70.52	71.42	70.25	71.32	371000
20170302	70.97	71.33	70.75	71.08	327700
20170303	70.82	71.48	70.82	71.30	298400
20170306	70.76	71.34	70.76	70.93	302100
20170307	70.83	71.20	70.49	70.76	452700
20170308	70.58	71.32	70.58	71.20	435600
20170309	71.15	71.71	70.88	71.12	341200
20170310	71.37	72.20	71.07	72.00	435400
20170313	72.01	72.20	71.41	71.96	221900
20170314	70.91	72.22	70.65	71.76	265900
20170315	72.12	72.84	72.04	72.42	225600
20170316	72.48	72.69	71.91	72.18	186200
20170317	72.10	72.42	71.81	72.27	405100
20170320	72.36	73.01	71.96	72.98	247300
20170321	72.87	72.98	71.85	71.98	321300
20170322	71.88	72.27	71.74	72.06	130100
20170323	72.04	72.89	71.56	72.35	136400
20170324	72.38	72.81	71.57	71.84	154300
20170327	71.08	71.97	71.08	71.84	256200
20170328	71.64	72.46	71.57	72.26	237700
20170329	72.30	72.30	71.72	72.23	129300
20170330	72.19	72.55	71.78	72.07	141800
20170331	72.10	72.46	71.65	72.19	197200
20170403	72.14	72.63	71.46	71.68	424900
20170404	71.73	72.10	71.21	71.95	318700
20170405	72.23	72.23	71.28	71.33	372800
20170406	71.20	71.77	70.78	71.76	293700
20170407	71.72	72.00	71.28	71.41	214800
20170410	71.20	72.15	71.18	72.09	242100
20170411	71.82	72.17	71.65	72.12	263700
20170412	72.09	72.12	71.30	71.48	236800
20170413	71.31	71.81	71.03	71.07	164800
20170417	71.29	72.48	71.15	72.45	220500
20170418	72.23	72.83	72.14	72.73	196800
20170419	73.01	73.07	72.68	72.71	264800
20170420	72.15	73.44	72.15	72.97	354300
20170421	73.30	73.74	72.29	73.13	185200
20170424	74.04	74.04	72.87	73.42	250700
20170425	73.46	74.23	72.78	73.82	290500
20170426	74.00	74.54	73.78	74.39	343000
20170427	74.26	74.64	73.54	73.88	237600
20170428	75.01	75.51	73.85	75.29	637700
20170501	75.39	75.88	74.57	75.06	974600
20170502	74.70	75.95	74.27	75.50	450100
20170503	75.21	75.93	74.84	75.73	384500
20170504	75.78	76.93	75.78	76.62	488800
20170505	76.63	77.35	76.55	77.11	413400
20170508	77.27	77.77	76.93	77.67	374100
20170509	77.77	78.08	77.30	77.64	302600
20170510	77.43	78.17	77.43	78.01	308100
20170511	77.65	78.06	77.02	77.69	311500
20170512	77.62	77.97	77.42	77.60	227600
20170515	77.60	78.12	77.37	77.79	211900
20170516	77.74	77.95	77.41	77.94	210700
20170517	77.94	77.94	77.05	77.46	266100
20170518	77.43	77.57	76.36	77.32	325700
20170519	77.37	77.67	77.02	77.53	331900
20170522	77.43	78.12	77.24	77.98	238500
20170523	78.13	78.76	78.11	78.31	204100
20170524	78.31	78.62	77.95	78.50	187400
20170525	78.72	79.34	78.38	79.22	203200
20170526	79.22	79.67	79.13	79.42	158300
20170530	79.20	79.68	78.89	79.58	224400
20170531	80.19	80.19	79.47	80.03	285400
20170601	80.25	81.25	80.03	81.20	272600
20170602	81.34	81.65	80.70	81.27	170700
20170605	81.05	81.98	80.75	80.82	237600
20170606	80.80	80.80	80.07	80.47	342600
20170607	80.12	80.88	80.07	80.67	366600
20170608	80.75	80.95	79.89	80.25	185000
20170609	80.30	80.77	80.19	80.63	189800
20170612	80.24	80.94	79.89	80.43	239000
20170613	80.83	81.13	80.47	81.13	178500
20170614	81.00	81.68	81.00	81.19	212300
20170615	80.51	81.23	79.92	81.18	200000
20170616	80.96	81.30	80.44	80.91	450200
20170619	81.26	81.78	80.89	81.66	166600
20170620	81.85	82.07	81.57	81.80	240200
20170621	81.82	82.78	81.48	81.90	185800
20170622	81.86	82.24	81.34	81.73	166200
20170623	81.74	82.54	81.27	81.71	474300
20170626	81.87	82.46	81.53	82.03	307000
20170627	81.90	82.38	81.28	81.31	187900
20170628	81.86	82.25	81.21	81.83	169600
20170629	81.78	82.02	80.75	81.42	196100
20170630	81.83	82.21	81.68	81.77	238500
20170703	82.10	82.53	81.80	81.98	118800
20170705	81.85	82.37	81.37	82.17	243900
20170706	81.74	82.60	81.61	82.19	393900
20170707	82.55	83.36	82.03	82.93	245200
20170710	82.79	83.85	82.35	83.12	246000
20170711	83.02	83.39	82.61	83.00	180700
20170712	83.65	84.08	83.25	83.76	142400
20170713	83.85	84.04	82.64	83.43	278600
20170714	83.90	84.70	83.71	84.19	305900
20170717	84.25	84.70	84.00	84.53	299300
20170718	84.16	85.11	83.86	84.48	278500
20170719	85.03	85.47	84.42	84.81	395300
20170720	84.98	85.18	84.28	84.44	323100
20170721	84.71	84.71	83.78	84.26	271500
20170724	84.03	84.64	83.70	84.52	390200
20170725	84.99	84.99	83.63	83.79	596900
20170726	83.88	84.06	83.13	83.20	317800
20170727	83.61	83.61	82.44	83.14	328900
20170728	78.79	79.08	76.36	77.76	915000
20170731	77.70	78.89	76.23	76.46	962700
20170801	76.53	78.22	76.51	77.95	463400
20170802	77.98	78.18	76.74	77.71	348600
20170803	77.75	77.87	77.30	77.71	322100
20170804	77.94	78.21	77.63	77.81	168100
20170807	77.99	78.37	77.84	78.17	171600
20170808	78.07	78.35	77.85	78.17	163300
20170809	77.94	78.23	77.70	77.92	188900
20170810	77.69	78.17	76.98	77.01	265100
20170811	77.80	77.80	76.91	77.60	214100
20170814	78.07	78.41	77.95	78.33	147300
20170815	78.17	78.41	77.99	78.18	190900
20170816	78.28	79.20	78.13	78.93	248800
20170817	78.67	78.91	77.58	77.59	221700
20170818	77.48	77.75	77.13	77.61	191000
20170821	77.53	77.92	76.85	76.99	126300
20170822	77.45	77.74	77.21	77.58	190100
20170823	77.23	77.97	76.99	77.10	180500
20170824	77.21	77.53	76.48	76.60	180000
20170825	77.00	78.16	77.00	77.84	330100
20170828	78.08	78.21	76.99	77.34	241600
20170829	77.38	77.56	77.06	77.47	226300
20170830	77.60	78.58	77.38	78.39	207600
20170831	78.58	79.04	78.15	78.99	266700
20170901	79.17	79.36	78.81	79.25	183000
20170905	79.10	79.52	78.58	78.65	191900
20170906	78.73	78.73	77.93	78.27	240900
20170907	78.38	79.11	77.77	78.99	241000
20170908	78.89	79.53	78.20	79.19	207600
20170911	79.66	80.46	79.36	80.42	209800
20170912	80.24	80.72	80.03	80.49	214500
20170913	79.94	80.34	79.71	79.83	229000
20170914	79.84	80.40	79.51	80.18	166300
20170915	80.06	80.26	79.81	80.03	399800
20170918	80.28	80.94	80.06	80.72	198600
20170919	80.71	81.02	80.26	80.83	260300
20170920	80.93	81.48	80.91	81.36	167200
20170921	81.32	81.97	81.13	81.39	199600
20170922	81.44	81.50	80.73	80.98	189400
20170925	81.01	82.09	80.64	81.97	222800
20170926	82.29	82.50	81.67	81.96	199700
20170927	82.00	82.13	81.45	81.76	272900
20170928	81.59	82.68	81.33	82.27	228200
20170929	82.21	82.32	81.53	81.54	220700
20171002	82.01	83.11	81.76	83.03	264000
20171003	83.04	83.55	83.04	83.54	202100
20171004	83.38	83.94	83.06	83.27	231600
20171005	83.62	83.83	82.78	83.27	178900
20171006	83.18	83.73	83.04	83.69	162800
20171009	83.78	83.89	83.45	83.57	139400
20171010	83.71	83.96	83.35	83.58	186700
20171011	83.59	83.89	83.32	83.48	162500
20171012	83.61	83.81	83.35	83.60	168000
20171013	83.79	84.43	83.79	83.93	187100
20171016	84.01	84.03	83.11	84.03	236000
20171017	84.37	84.37	83.81	84.06	175200
20171018	83.83	84.43	83.44	83.71	207400
20171019	83.62	83.92	83.47	83.74	151600
20171020	84.30	84.38	83.80	84.27	134800
20171023	84.23	84.73	84.01	84.11	418900
20171024	84.14	84.68	83.92	84.20	189100
20171025	84.15	84.53	82.85	83.60	201800
20171026	83.90	84.31	83.71	84.03	234700
20171027	84.46	84.46	81.15	83.07	531500
20171030	82.63	82.75	81.49	81.68	260400
20171031	81.79	82.78	81.66	82.57	474700
20171101	83.29	83.56	82.70	82.89	279300
20171102	82.58	82.85	81.85	82.12	259200
20171103	82.12	82.67	82.12	82.44	216000
20171106	82.52	82.58	81.25	81.41	271600
20171107	81.41	81.66	80.97	81.29	326900
20171108	81.25	82.12	81.21	81.29	271400
20171109	80.79	81.00	79.96	80.38	146600
20171110	79.99	80.71	79.86	80.52	195800
20171113	80.24	81.32	80.24	81.16	156100
20171114	80.96	81.45	80.75	81.18	157400
20171115	81.11	81.53	80.68	81.06	182500
20171116	81.30	82.03	81.17	81.66	264400
20171117	81.58	81.78	81.06	81.22	171000
20171120	81.18	81.96	80.91	81.05	220200
20171121	81.48	82.33	80.91	82.06	506700
20171122	82.13	82.14	81.35	81.41	140300
20171124	81.07	81.87	80.70	81.79	108200
20171127	81.90	82.50	81.90	82.25	330900
20171128	82.76	82.94	81.96	82.41	194600
20171129	82.60	83.20	82.58	83.03	193900
20171130	83.08	84.30	82.58	83.84	232000
20171201	83.76	84.39	81.97	83.07	244300
20171204	83.25	84.11	82.80	83.50	290400
20171205	83.76	84.55	83.34	84.40	255800
20171206	84.34	84.34	83.56	83.61	251700
20171207	83.87	84.13	83.25	83.81	258900
20171208	83.70	83.92	83.03	83.35	251000
20171211	83.32	83.32	82.37	82.76	241200
20171212	82.78	83.01	81.27	81.96	424400
20171213	81.60	82.68	81.32	82.21	420900
20171214	82.58	82.70	81.85	81.90	302000
20171215	82.11	82.98	82.11	82.48	474900
20171218	82.74	83.34	82.01	82.09	251800
20171219	81.84	83.12	81.84	82.10	367200
20171220	82.35	82.62	81.83	81.86	189500
20171221	81.93	82.30	81.29	81.32	265400
20171222	81.25	81.89	81.01	81.46	162500
20171226	81.35	81.98	80.81	80.97	130500
20171227	81.00	81.38	80.66	81.19	114500
20171228	81.41	82.38	81.23	82.26	207000
20171229	82.39	82.50	81.78	81.82	148900
20180102	81.97	82.80	81.63	82.51	233300
20180103	82.75	83.08	82.33	82.68	177700
20180104	82.70	83.38	81.36	81.56	362900
20180105	81.83	82.93	81.73	82.41	209200
20180108	82.37	82.98	82.09	82.69	341200
20180109	82.76	83.22	81.89	81.92	282000
20180110	81.65	81.65	80.75	81.24	161400
20180111	81.02	82.02	81.02	81.79	311600
20180112	81.90	82.44	81.44	82.08	179400
20180116	81.89	82.70	81.56	81.78	254000
20180117	82.28	82.76	82.03	82.35	250400
20180118	82.36	82.80	81.88	82.73	220800
20180119	82.78	84.11	82.78	84.03	177500
20180122	84.03	84.03	82.12	82.94	369900
20180123	82.92	83.21	82.41	83.07	158800
20180124	83.27	84.02	81.88	83.64	255000
20180125	83.83	84.80	83.57	84.80	339100
20180126	84.85	84.87	83.88	84.53	206300
20180129	84.14	84.61	83.01	83.19	254300
20180130	83.23	83.71	82.85	83.46	345000
20180131	83.84	83.85	82.57	83.20	519100
20180201	83.03	83.40	81.67	82.65	220800
20180202	82.35	82.72	81.41	81.66	217000
20180205	80.99	81.85	79.36	79.36	434200
20180206	78.40	79.84	77.48	79.75	352300
20180207	79.77	80.81	79.69	79.80	304100
20180208	79.81	80.73	77.43	77.45	349100
20180209	78.13	78.60	76.11	78.19	367200
20180212	78.58	79.42	77.65	78.61	303000
20180213	82.56	87.86	82.14	85.39	1102000
20180214	85.26	86.48	84.46	86.28	512100
20180215	85.83	87.53	85.83	86.77	333300
20180216	86.65	87.69	86.12	87.40	335500
20180220	86.84	87.74	86.34	86.67	372000
20180221	86.93	87.83	85.76	85.81	283200
20180222	86.08	87.05	85.95	86.24	255300
20180223	86.36	86.67	85.59	86.60	249400
20180226	86.87	87.07	86.03	86.40	250300
20180227	86.35	86.35	85.12	85.18	286500
20180228	85.40	86.05	84.90	85.10	306900
20180301	84.93	86.12	84.05	84.70	241900
20180302	84.46	85.55	84.04	85.35	270600
20180305	85.00	86.32	85.00	86.04	231200
20180306	86.01	86.66	84.97	86.39	295800
20180307	85.64	86.74	85.38	85.79	317500
20180308	86.04	86.45	85.13	85.61	368000
20180309	85.60	86.56	85.24	86.48	283100
20180312	86.32	86.60	86.04	86.40	181100
20180313	86.87	87.66	85.91	86.13	257500
20180314	86.57	86.87	85.11	85.72	266900
20180315	85.79	86.20	85.47	85.92	239600
20180316	85.99	86.73	85.43	85.80	424800
20180319	85.71	86.00	85.13	85.62	155000
20180320	85.68	86.12	85.34	85.45	247700
20180321	85.38	85.98	85.08	85.27	266300
20180322	84.91	85.57	83.69	83.71	260900
20180323	83.70	83.70	82.51	82.58	215900
20180326	83.43	84.28	82.87	83.95	278900
20180327	84.25	84.83	83.39	83.83	253200
20180328	83.83	84.61	83.58	84.10	194000
20180329	84.59	85.98	84.10	85.49	287300
20180402	85.06	85.41	82.96	83.69	184400
20180403	84.16	85.82	83.46	85.24	336600
20180404	84.63	85.61	82.66	85.38	276500
20180405	85.94	86.47	84.97	86.04	276400
20180406	85.36	86.00	83.97	84.23	362200
20180409	84.85	85.98	84.32	85.56	471500
20180410	86.37	88.61	85.75	88.25	455600
20180411	87.53	88.17	87.32	87.80	250800
20180412	88.28	88.75	88.02	88.23	221500
20180413	88.70	88.83	88.00	88.27	262600
20180416	88.54	90.09	88.47	89.76	196900
20180417	89.73	91.74	89.26	91.49	507200
20180418	91.51	91.56	90.59	91.00	346800
20180419	90.46	91.25	89.98	90.22	165000
20180420	90.52	90.55	89.58	89.88	217800
20180423	90.14	90.82	89.56	89.80	189500
20180424	90.03	90.13	88.29	88.68	401900
20180425	88.53	89.42	87.91	88.65	298700
20180426	88.68	89.18	88.13	88.78	417000
20180427	89.23	90.17	87.45	88.95	407500
20180430	89.21	89.45	88.56	88.99	907800
20180501	88.94	89.34	88.25	89.03	427800
20180502	89.46	89.46	88.01	88.09	631100
20180503	87.80	88.35	86.59	86.72	560200
20180504	86.46	88.29	86.46	87.81	339900
20180507	87.91	88.79	87.85	88.32	215100
20180508	88.60	88.62	87.43	87.63	284600
20180509	87.86	88.88	87.26	88.78	255500
20180510	88.91	89.72	88.87	89.57	377900
20180511	89.53	90.08	88.96	90.05	492900
20180514	89.95	90.45	88.14	89.17	477500
20180515	88.98	88.98	87.47	87.96	406400
20180516	88.17	89.55	87.79	89.33	257600
20180517	89.46	89.70	88.87	89.09	242600
20180518	88.40	90.04	88.23	89.35	272300
20180521	89.79	90.16	89.62	89.78	162300
20180522	90.04	90.68	89.46	89.73	165300
20180523	89.42	90.03	89.16	89.86	165800
20180524	89.89	90.23	89.37	89.80	116200
20180525	89.66	90.17	89.63	89.85	154900
20180529	89.26	89.78	88.88	89.11	212700
20180530	88.53	90.16	88.53	89.73	258600
20180531	90.01	90.15	88.04	88.17	151900
20180601	88.70	89.09	88.31	88.60	174800
20180604	88.92	89.68	88.28	89.64	172100
20180605	89.83	90.25	89.35	89.70	114800
20180606	89.46	89.87	87.90	89.69	437300
20180607	89.61	90.18	88.28	89.05	534000
20180608	88.87	89.68	88.80	89.45	290600
20180611	89.57	90.59	89.23	89.60	389400
20180612	89.86	90.62	89.39	89.92	455100
20180613	90.30	90.73	89.82	90.08	321400
20180614	90.55	90.98	90.02	90.59	320400
20180615	90.73	91.08	90.15	90.65	505200
20180618	90.32	90.80	89.79	90.58	347300
20180619	89.73	90.37	89.40	90.01	333700
20180620	89.94	90.60	89.72	90.38	285600
20180621	90.26	90.36	88.77	88.91	296900
20180622	89.09	89.29	88.19	88.46	681100
20180625	88.60	89.01	87.31	88.03	348700
20180626	88.20	89.25	87.88	88.54	266700
20180627	88.61	89.69	87.93	87.96	295800
20180628	87.86	88.59	87.54	88.54	251300
20180629	89.01	89.89	88.75	89.18	335800
20180702	88.73	89.55	88.30	89.38	237500
20180703	89.73	90.76	89.40	89.76	178000
20180705	90.24	90.29	89.25	90.29	249900
20180706	89.98	90.14	89.51	89.85	238000
20180709	90.20	91.33	90.20	90.82	188700
20180710	90.89	91.84	90.89	91.79	216100
20180711	91.31	92.04	90.83	91.38	220800
20180712	91.68	92.48	91.29	91.43	196700
20180713	91.07	91.86	90.40	90.60	205300
20180716	90.51	90.61	88.98	89.09	132000
20180717	89.03	90.48	88.97	90.38	155400
20180718	90.38	90.90	89.94	90.37	150000
20180719	90.44	92.20	90.44	92.00	213300
20180720	91.63	91.84	91.04	91.47	192600
20180723	91.63	92.00	90.53	90.86	195800
20180724	91.05	91.55	90.28	90.49	225300
20180725	90.32	90.73	89.82	90.47	182300
20180726	90.61	92.05	90.31	91.75	170300
20180727	93.59	98.40	92.78	98.27	626000
20180730	98.86	99.42	95.45	97.89	531800
20180731	98.20	99.16	96.57	98.15	588100
20180801	98.12	98.39	97.17	98.15	301400
20180802	97.39	99.25	97.08	98.68	327400
20180803	98.69	100.13	98.55	99.75	300200
20180806	99.66	100.56	99.63	99.86	279500
20180807	99.81	100.31	99.07	99.22	296500
20180808	99.02	99.63	98.57	98.66	277900
20180809	98.80	99.72	98.70	99.56	265500
20180810	99.05	99.69	97.89	98.10	325600
20180813	97.97	99.15	96.72	97.16	227800
20180814	97.63	98.22	97.10	97.72	176500
20180815	97.32	97.41	95.88	97.11	300500
20180816	97.37	97.89	97.11	97.42	276300
20180817	97.43	98.69	97.16	98.47	131800
20180820	98.62	99.19	98.31	98.56	198600
20180821	98.53	99.51	98.53	98.97	209600
20180822	99.00	99.08	98.45	98.87	103300
20180823	99.00	99.22	98.47	98.61	124400
20180824	98.68	99.79	98.68	99.46	127300
20180827	99.45	100.46	99.45	100.17	175400
20180828	100.19	100.79	99.47	99.55	214900
20180829	99.85	100.78	99.43	100.32	199700
20180830	100.48	101.35	99.48	100.32	231900
20180831	100.25	101.03	100.02	100.33	153000
20180904	100.92	102.05	100.21	101.93	323600
20180905	101.84	104.23	101.84	103.66	334100
20180906	103.87	105.11	103.61	104.40	228400
20180907	104.39	104.39	103.29	103.39	258500
20180910	103.86	104.52	103.38	104.02	212400
20180911	103.74	104.19	103.05	103.99	101600
20180912	103.83	105.05	103.60	104.82	154700
20180913	104.21	106.27	104.13	106.19	273900
20180914	106.14	107.47	105.20	107.29	424200
20180917	107.61	107.62	106.28	106.65	564500
20180918	106.55	107.12	105.37	106.93	202600
20180919	107.00	107.22	105.91	106.49	204300
20180920	106.63	106.85	105.59	105.87	204500
20180921	105.57	106.22	105.09	105.71	473200
20180924	105.59	106.81	105.39	105.77	352400
20180925	106.12	106.32	104.08	104.22	279000
20180926	104.12	104.91	103.84	104.06	629100
20180927	104.06	104.63	103.64	103.81	255600
20180928	103.69	104.34	103.06	103.24	416900
20181001	103.53	104.64	102.88	103.27	208600
20181002	103.42	104.07	103.10	103.63	210300
20181003	103.98	104.09	103.04	103.49	361200
20181004	103.29	103.29	101.86	102.61	273300
20181005	102.69	103.14	102.49	102.69	220800
20181008	102.64	103.34	102.38	103.17	164700
20181009	102.90	102.90	101.26	101.30	277500
20181010	100.90	101.35	97.85	98.14	456000
20181011	98.09	99.14	97.22	97.33	312700
20181012	98.39	99.04	96.15	97.40	399100
20181015	97.42	98.66	96.83	97.88	239600
20181016	98.37	101.35	98.37	101.19	231300
20181017	101.66	101.66	100.06	100.63	180900
20181018	100.35	100.84	99.49	99.91	439900
20181019	100.22	100.81	99.92	99.96	271800
20181022	100.24	100.36	98.74	99.63	199300
20181023	98.44	100.20	97.47	99.35	479500
20181024	99.30	99.48	95.71	95.90	498300
20181025	96.66	97.71	96.31	97.06	299800
20181026	96.25	96.83	95.16	96.17	423800
20181029	97.09	97.80	95.00	95.97	271300
20181030	96.19	97.50	95.51	97.46	318600
20181031	98.48	99.10	97.93	98.03	417100
20181101	98.73	99.48	98.45	99.20	392600
20181102	93.31	101.27	91.40	99.80	959300
20181105	99.98	100.45	97.35	97.96	481500
20181106	97.72	100.73	97.58	100.09	381300
20181107	100.84	101.20	99.36	101.06	340200
20181108	100.91	101.70	100.57	101.08	368400
20181109	100.92	101.72	99.16	100.27	227100
20181112	100.15	100.33	97.67	97.85	343100
20181113	98.39	99.47	97.63	98.44	225200
20181114	99.07	99.91	97.79	98.15	163200
20181115	97.64	100.79	97.31	100.75	261000
20181116	100.18	103.02	100.18	102.19	235400
20181119	102.11	102.54	100.68	101.13	192700
20181120	100.59	101.37	99.39	100.29	246800
20181121	100.65	101.14	99.18	99.51	221600
20181123	99.03	100.40	99.01	99.90	75400
20181126	100.69	100.95	98.98	99.70	231700
20181127	99.32	99.34	98.16	98.36	213400
20181128	98.84	100.06	97.76	100.02	327800
20181129	99.72	100.89	99.70	99.85	238400
20181130	99.67	100.52	99.27	100.04	330400
20181203	101.18	101.45	98.50	100.44	292000
20181204	100.82	100.82	98.87	98.97	273100
20181206	98.07	98.07	94.56	97.71	302900
20181207	97.00	98.89	95.28	95.93	226100
20181210	95.60	96.01	94.44	95.29	161100
20181211	96.24	97.13	94.49	94.87	192600
20181212	96.24	97.05	95.91	96.08	240900
20181213	96.55	97.37	95.68	96.46	167800
20181214	96.19	97.07	95.31	96.47	187100
20181217	95.99	96.77	94.26	94.84	313900
20181218	95.60	96.41	93.52	94.17	231000
20181219	94.49	95.03	91.60	91.91	268300
20181220	91.83	92.45	90.06	91.35	248100
20181221	91.11	92.89	89.91	89.95	588800
20181224	89.28	89.28	86.22	86.24	168300
20181226	86.26	88.47	86.26	88.23	394400
20181227	87.21	88.92	86.54	88.81	467500
20181228	89.03	90.29	88.50	89.13	437400
20181231	89.24	90.45	89.09	90.45	246900
20190102	89.16	89.16	86.00	86.71	517500
20190103	85.54	86.73	84.86	85.66	637200
20190104	86.63	88.36	85.85	87.56	433600
20190107	87.11	89.89	87.09	88.41	525400
20190108	89.24	90.47	88.22	89.92	379600
20190109	90.24	90.57	89.62	89.88	195700
20190110	89.55	91.17	89.54	90.94	205800
20190111	91.02	91.10	89.83	91.08	248200
20190114	90.65	91.20	90.13	90.34	210500
20190115	90.35	91.72	90.28	91.16	213900
20190116	91.17	91.68	90.75	91.06	187100
20190117	90.75	92.47	90.74	92.23	265500
20190118	92.40	94.20	92.19	93.93	237400
20190122	93.67	94.46	91.46	92.72	304000
20190123	92.97	94.00	92.54	93.63	266300
20190124	93.50	94.28	92.98	93.39	135300
20190125	94.14	94.56	93.33	93.64	116300
20190128	93.64	94.71	93.53	94.11	217900
20190129	93.99	94.96	93.99	94.50	161600
20190130	94.65	95.32	94.19	94.51	292500
20190131	94.55	95.79	93.82	95.63	346500
20190201	95.84	96.46	95.57	96.05	269600
20190204	95.92	96.38	95.05	96.34	137200
20190205	96.43	97.57	95.92	97.52	288000
20190206	97.08	98.41	97.04	98.02	206800
20190207	97.57	98.45	97.29	98.36	202100
20190208	98.00	98.71	97.41	97.82	184300
20190211	98.30	98.85	97.68	98.12	239100
20190212	98.70	99.08	98.16	98.72	230000
20190213	99.10	99.87	98.66	99.18	229700
20190214	98.64	99.41	97.99	98.19	234000
20190215	98.72	98.86	97.79	98.35	235800
20190219	98.26	98.44	97.70	97.98	378800
20190220	97.90	99.05	97.75	98.66	282100
20190221	98.70	100.34	97.10	99.49	508600
20190222	98.88	99.91	97.68	98.46	303400
20190225	98.67	98.99	97.55	97.99	336100
20190226	97.65	98.09	97.38	97.75	302500
20190227	98.43	98.70	97.24	97.84	375300
20190228	97.70	98.46	97.42	98.15	311500
20190301	98.61	98.61	97.15	97.26	245900
20190304	97.69	98.56	97.09	98.04	324000
20190305	98.10	98.67	97.77	97.90	211000
20190306	97.96	98.43	96.90	96.96	127500
20190307	96.68	97.09	95.87	96.37	151600
20190308	95.72	97.08	95.72	96.94	146300
20190311	97.06	98.48	97.03	98.43	175300
20190312	98.47	99.29	98.46	98.66	176700
20190313	98.89	99.71	98.50	98.68	287600
20190314	98.74	99.42	98.23	99.27	169400
20190315	99.30	99.94	98.97	99.43	278600
20190318	99.59	100.19	99.23	100.06	132800
20190319	100.55	100.91	99.61	99.96	188800
20190320	99.78	101.14	99.24	100.29	181300
20190321	99.93	101.96	99.93	101.83	194000
20190322	101.56	101.56	99.86	100.18	213200
20190325	99.91	101.28	99.40	100.83	163900
20190326	101.31	102.64	101.02	101.73	262300
20190327	101.81	102.74	101.43	101.81	179500
20190328	102.04	102.65	101.71	102.45	129900
20190329	102.37	102.93	101.76	102.65	337900
20190401	103.15	104.03	102.47	103.92	234000
20190402	104.01	104.01	102.91	103.45	194600
20190403	103.83	104.28	103.39	103.69	201200
20190404	103.89	104.36	103.52	104.30	164000
20190405	103.79	105.13	103.79	104.92	161400
20190408	104.83	105.43	104.19	105.16	149600
20190409	104.58	104.74	103.74	104.36	183400
20190410	104.41	105.46	104.15	105.20	166200
20190411	105.45	106.00	105.15	105.80	228900
20190412	106.08	106.81	105.93	106.43	185900
20190415	106.46	106.61	105.64	106.02	190500
20190416	105.95	106.10	104.93	105.76	197600
20190417	105.82	105.89	103.81	103.91	150500
20190418	104.13	104.57	103.53	104.40	214600
20190422	104.44	105.52	104.44	105.10	165800
20190423	105.20	106.64	105.20	106.19	220800
20190424	106.10	106.96	106.07	106.07	152200
20190425	105.37	106.10	105.00	105.60	132400
20190426	105.85	107.72	105.84	107.50	138900
20190429	107.46	107.79	106.86	107.40	137600
20190430	107.20	108.23	106.41	107.68	277600
20190501	108.67	110.99	107.98	109.20	336100
20190502	109.20	109.50	108.04	109.38	345200
20190503	109.67	110.48	109.12	110.20	310200
20190506	108.93	111.82	108.93	111.33	263000
20190507	110.33	111.01	109.51	110.32	159500
20190508	110.13	110.81	109.68	110.34	169400
20190509	109.75	110.14	109.15	109.38	259300
20190510	109.11	110.07	108.59	109.96	225100
20190513	108.32	109.54	107.72	109.19	160100
20190514	109.76	110.70	109.27	109.36	132600
20190515	109.15	110.12	108.76	109.61	116500
20190516	109.75	110.83	109.63	110.45	218800
20190517	109.85	110.79	109.85	110.13	151800
20190520	109.56	110.16	109.21	109.42	175600
20190521	109.87	110.24	109.47	109.84	156300
20190522	110.12	110.33	109.38	109.52	146800
20190523	108.93	110.05	108.45	109.34	119600
20190524	109.66	110.22	109.14	109.31	117700
20190528	109.42	109.98	109.08	109.28	259200
20190529	108.93	109.81	108.68	109.09	188200
20190530	109.12	109.99	108.93	109.87	128700
20190531	108.92	110.09	107.93	109.64	247400
20190603	109.78	111.32	109.78	110.38	297400
20190604	111.02	112.26	110.04	112.01	483400
20190605	112.19	113.43	111.71	113.38	392000
20190606	113.45	116.53	113.45	116.38	319800
20190607	116.15	118.67	116.08	118.01	427800
20190610	118.27	119.33	117.73	119.27	253200
20190611	120.03	120.46	117.33	118.65	365600
20190612	119.05	119.05	117.31	117.72	273400
20190613	117.61	118.19	116.45	116.85	166500
20190614	116.60	116.65	115.74	116.24	187300
20190617	116.19	116.97	115.95	116.32	136300
20190618	116.73	116.83	115.55	115.66	208300
20190619	115.80	116.15	115.01	115.58	340200
20190620	117.02	117.12	114.49	115.97	335100
20190621	115.50	116.01	113.67	115.55	603600
20190624	115.67	115.67	114.68	114.97	187700
20190625	115.19	117.89	115.07	117.18	300700
20190626	117.36	117.36	115.28	115.42	236700
20190627	115.56	117.91	115.56	117.66	247700
20190628	117.72	120.75	117.72	120.36	831100
20190701	120.99	122.16	119.17	120.29	322000
20190702	120.38	120.71	119.27	119.58	402400
20190703	120.03	121.89	120.03	121.89	188600
20190705	121.20	121.25	119.07	120.62	255300
20190708	121.48	121.48	119.68	120.02	199600
20190709	119.82	120.54	119.82	120.09	235000
20190710	120.64	121.76	119.40	119.62	169900
20190711	119.32	120.14	119.07	120.05	226400
20190712	120.21	120.21	119.26	119.46	241000
20190715	119.20	119.99	118.76	118.98	189600
20190716	119.17	119.41	118.38	119.21	230800
20190717	119.17	120.44	119.17	119.57	267300
20190718	119.20	120.46	119.09	120.38	173900
20190719	120.71	120.95	119.41	119.45	226000
20190722	119.55	119.92	118.88	119.21	153800
20190723	119.92	120.71	119.43	120.52	183600
20190724	120.04	120.56	118.90	119.34	215300
20190725	119.06	120.30	118.75	118.98	273700
20190726	119.18	120.77	118.99	120.50	198000
20190729	120.46	121.63	119.58	120.94	277400
20190730	120.18	120.93	119.36	120.19	221700
20190731	119.88	120.24	116.43	117.48	621400
20190801	116.67	116.67	111.48	114.12	533000
20190802	113.20	114.88	112.27	114.57	316600
20190805	113.03	115.55	112.85	113.66	462500
20190806	114.11	117.28	113.95	116.22	356400
20190807	115.62	118.68	115.23	118.10	268700
20190808	118.90	120.37	118.03	119.28	374300
20190809	119.15	119.63	117.51	117.54	186400
20190812	117.48	118.12	116.41	116.51	135600
20190813	116.28	118.25	115.57	117.67	216300
20190814	116.50	117.20	115.51	115.61	375800
20190815	115.76	116.73	114.50	114.87	238400
20190816	115.43	117.21	114.50	116.73	197800
20190819	117.66	117.93	116.49	116.70	206400
20190820	116.59	116.59	115.00	115.40	141800
20190821	116.16	116.33	115.41	115.84	298500
20190822	116.33	117.19	115.56	117.01	227100
20190823	117.02	117.78	116.38	116.74	296100
20190826	117.19	117.68	116.40	117.45	237100
20190827	117.93	118.27	117.28	117.95	183000
20190828	117.94	118.57	117.10	118.30	221100
20190829	119.29	119.83	117.61	118.13	184600
20190830	118.80	119.71	117.68	118.65	183700
20190903	117.28	117.54	115.10	116.15	262000
20190904	117.20	118.48	116.67	118.37	160800
20190905	119.39	119.61	117.44	117.66	230100
20190906	117.42	118.28	116.80	117.34	239300
20190909	118.01	118.01	115.30	115.62	232900
20190910	115.50	115.83	112.72	115.63	258200
20190911	115.42	116.03	113.31	115.16	231700
20190912	115.60	116.20	114.53	114.60	163300
20190913	115.08	115.49	114.22	114.94	269900
20190916	114.28	114.28	112.48	113.07	192100
20190917	112.80	114.41	112.68	113.59	216700
20190918	113.47	115.47	113.15	114.84	253400
20190919	114.87	115.47	114.20	114.40	304200
20190920	114.68	115.54	114.12	114.60	527900
20190923	114.17	115.49	114.17	114.65	164300
20190924	115.13	116.00	114.79	115.04	187100
20190925	115.24	115.95	115.20	115.64	202100
20190926	116.07	116.18	115.05	115.44	117900
20190927	115.72	115.82	114.61	115.20	149100
20190930	115.47	115.92	114.39	114.99	219700
20191001	115.80	116.23	114.06	114.23	143300
20191002	113.58	113.60	111.70	111.98	225600
20191003	111.64	111.86	110.45	111.63	241100
20191004	111.94	114.18	111.72	113.90	162400
20191007	113.28	114.02	112.84	113.15	216100
20191008	112.62	114.32	111.16	111.42	221900
20191009	112.43	113.47	112.01	113.07	134700
20191010	113.07	113.81	112.35	112.91	102400
20191011	113.50	114.55	112.84	112.93	213700
20191014	112.92	113.46	112.36	112.46	131900
20191015	112.94	113.23	111.69	111.81	182500
20191016	111.77	112.22	111.05	112.09	213700
20191017	112.19	113.66	112.12	113.14	153800
20191018	113.02	114.55	113.02	114.34	219100
20191021	114.91	115.63	114.35	114.45	142900
20191022	114.58	114.60	113.21	113.25	85400
20191023	113.12	114.48	113.09	113.94	104800
20191024	114.02	114.68	113.33	113.91	122500
20191025	113.78	115.15	113.78	114.43	120300
20191028	114.51	115.33	114.39	114.74	134100
20191029	114.36	116.00	114.36	115.40	136600
20191030	115.46	116.49	114.68	116.12	148200
20191031	115.91	116.49	114.53	115.05	316000
20191101	110.68	112.52	106.66	107.88	583300
20191104	108.09	108.82	105.56	105.81	553700
20191105	106.34	107.35	105.58	105.80	385300
20191106	105.81	106.92	105.57	106.61	369800
20191107	106.65	107.63	106.05	106.52	189400
20191108	106.44	108.01	106.01	106.14	303500
20191111	105.63	106.88	105.63	105.73	181500
20191112	105.78	106.43	105.32	105.38	185400
20191113	105.47	107.18	105.18	106.74	385400
20191114	106.60	107.67	106.60	107.57	224000
20191115	107.82	107.82	106.82	107.07	307300
20191118	107.03	108.03	106.99	107.44	352100
20191119	107.82	108.47	107.55	107.60	258700
20191120	107.23	108.91	107.23	107.79	961400
20191121	108.31	109.11	107.28	108.38	244200
20191122	108.72	108.74	107.11	107.23	151700
20191125	107.36	108.14	107.27	108.03	264400
20191126	108.59	109.69	108.05	109.60	221900
20191127	110.02	110.60	109.67	109.86	145500
20191129	109.68	110.23	109.00	109.17	89300
20191202	109.56	109.76	108.69	109.07	273300
20191203	108.58	110.33	108.22	109.75	246400
20191204	109.78	110.50	108.80	108.84	284600
20191205	108.95	109.70	108.72	109.01	243700
20191206	109.83	110.03	108.86	109.13	322100
20191209	109.36	109.87	108.75	109.67	255000
20191210	109.51	109.86	108.41	109.00	219500
20191211	109.03	109.81	108.96	109.61	141100
20191212	109.55	111.43	109.55	111.18	407000
20191213	110.98	112.36	110.35	110.97	380400
20191216	111.45	111.70	110.32	111.32	194200
20191217	111.13	111.73	110.09	110.37	248900
20191218	110.37	110.39	109.41	110.11	204000
20191219	110.19	110.50	109.84	110.28	172100
20191220	110.73	112.11	110.73	111.94	473500
20191223	111.91	112.34	111.23	112.34	144300
20191224	112.28	112.60	111.67	111.71	63800
20191226	111.72	111.84	110.81	111.80	110900
20191227	112.19	112.32	111.15	112.00	87800
20191230	111.92	112.76	111.66	112.72	193000
20191231	112.68	113.15	112.00	112.58	310700
20200102	112.46	113.42	109.96	110.69	362700
20200103	109.85	111.82	109.85	111.04	221500
20200106	110.67	111.48	110.58	111.05	282400
20200107	110.58	111.01	109.78	109.94	234700
20200108	110.11	111.18	110.11	110.24	331000
20200109	110.78	112.04	110.34	111.65	329100
20200110	111.65	113.12	111.56	112.75	196800
20200113	112.45	113.50	112.34	113.15	248500
20200114	113.19	113.26	112.11	113.08	160800
20200115	113.26	114.15	112.85	113.64	241500
20200116	114.13	115.16	114.10	115.11	187300
20200117	115.20	115.49	113.98	114.24	190600
20200121	113.59	113.70	112.32	112.59	189300
20200122	112.65	113.37	112.45	112.63	141800
20200123	112.30	115.89	111.75	114.29	301000
20200124	114.31	115.05	113.56	114.04	213000
20200127	112.50	114.18	112.19	113.43	239100
20200128	113.70	113.87	112.88	113.27	178600
20200129	113.21	114.36	112.84	113.24	211200
20200130	112.34	114.29	111.67	113.83	153200
20200131	113.21	113.68	112.46	112.82	300700
20200203	112.92	114.81	112.82	114.51	271300
20200204	115.05	115.73	113.50	114.23	313700
20200205	114.42	115.54	114.03	115.13	188100
20200206	115.30	116.18	114.73	114.80	247800
20200207	114.35	114.94	113.52	113.99	144500
20200210	113.71	114.38	112.79	113.11	142600
20200211	113.32	114.17	112.72	113.35	197600
20200212	113.43	113.51	111.64	112.04	448200
20200213	111.91	113.84	111.05	113.50	200400
20200214	113.89	115.01	113.47	113.96	216800
20200218	113.76	113.92	112.40	112.58	271300
20200219	112.69	113.91	112.05	112.33	289200
20200220	111.94	112.98	111.09	112.26	378400
20200221	108.93	111.98	106.62	109.38	720600
20200224	107.93	108.62	106.63	106.67	447900
20200225	106.68	107.02	104.23	104.45	641400
20200226	101.58	104.08	100.38	102.24	504500
20200227	100.99	102.32	99.58	100.02	670500
20200228	97.41	99.83	97.01	98.72	690800
20200302	99.26	101.35	98.46	101.17	331800
20200303	101.38	103.26	99.82	100.37	353300
20200304	102.94	105.13	102.01	104.94	294500
20200305	102.89	103.34	100.25	101.56	273800
20200306	99.25	104.91	98.97	104.80	624000
20200309	100.35	102.56	97.17	99.09	597100
20200310	101.19	101.57	97.08	101.57	522300
20200311	99.30	99.30	95.64	96.78	705800
20200312	90.33	94.16	85.46	92.20	843100
20200313	95.80	97.13	89.00	94.15	596000
20200316	85.37	92.28	85.37	85.84	667400
20200317	87.86	94.69	87.40	94.21	595700
20200318	89.56	94.72	88.24	94.50	762000
20200319	94.25	98.87	91.41	96.58	354700
20200320	96.51	97.65	87.06	90.36	727300
20200323	89.92	91.07	77.98	81.98	698800
20200324	85.24	86.27	80.77	86.01	535600
20200325	86.93	91.48	84.21	88.08	576200
20200326	88.74	95.08	88.12	93.96	447000
20200327	92.34	93.61	89.96	91.81	482000
20200330	92.76	98.61	92.17	98.14	435400
20200331	98.18	100.36	95.17	97.22	531000
20200401	95.44	96.38	93.22	93.97	296500
20200402	93.58	94.88	91.93	93.91	455700
20200403	92.67	95.15	91.19	92.00	370300
20200406	94.81	98.83	94.81	98.42	503200
20200407	101.14	101.14	96.91	98.77	378000
20200408	100.26	102.84	98.30	101.69	328500
20200409	102.60	105.52	101.81	104.77	399300
20200413	104.50	104.93	99.92	99.97	234000
20200414	102.13	102.92	100.96	101.60	239700
20200415	99.90	101.77	98.27	98.58	441400
20200416	100.63	100.63	97.36	99.48	294000
20200417	101.44	102.58	100.02	100.55	256200
20200420	99.49	105.43	98.78	104.45	856400
20200421	103.39	104.50	101.70	103.65	475500
20200422	104.50	104.55	101.70	103.83	436400
20200423	104.14	104.82	102.51	102.58	347600
20200424	102.96	102.96	100.69	101.70	377000
20200427	106.79	111.45	104.39	109.96	457700
20200428	110.33	112.35	108.76	108.94	274600
20200429	110.29	111.34	107.61	107.86	236600
20200430	106.80	107.85	104.20	104.92	730600
20200501	108.33	108.33	102.60	104.00	506200
20200504	103.41	105.17	102.96	104.66	324300
20200505	104.63	105.46	103.28	103.44	332500
20200506	104.62	104.90	102.65	102.75	234000
20200507	103.40	104.74	103.02	103.35	285200
20200508	104.83	105.82	104.42	105.37	257000
20200511	104.51	105.35	103.94	104.17	344000
20200512	104.29	104.29	101.76	101.86	233300
20200513	101.31	101.31	99.60	100.36	267100
20200514	98.98	100.55	97.12	100.40	246200
20200515	99.43	99.65	98.04	99.46	476400
20200518	101.98	103.03	100.88	102.05	304500
20200519	101.70	103.62	101.08	101.64	214700
20200520	102.35	103.40	101.99	102.31	146200
20200521	102.34	103.58	102.34	102.97	233900
20200522	102.86	103.13	101.62	102.98	151200
20200526	105.18	107.97	104.63	107.34	332200
20200527	108.83	110.38	108.13	110.28	290400
20200528	111.05	111.05	108.71	109.35	233600
20200529	108.86	109.29	107.50	109.15	215300
20200601	109.04	109.63	108.37	109.18	277000
20200602	109.50	110.21	108.71	109.81	224900
20200603	110.43	111.80	110.43	111.00	196600
20200604	111.22	111.22	108.79	109.88	182500
20200605	111.51	111.98	110.64	111.12	235500
20200608	110.55	111.71	110.03	111.29	244700
20200609	110.51	111.17	109.66	110.21	292100
20200610	110.73	110.73	108.59	109.39	366600
20200611	107.79	108.38	102.11	102.15	376900
20200612	104.54	105.37	101.01	103.24	247300
20200615	101.36	104.40	101.00	103.29	235900
20200616	106.12	106.89	104.71	105.23	252600
20200617	106.01	106.46	104.23	104.76	208800
20200618	104.14	105.80	103.84	104.84	217800
20200619	105.05	105.82	103.96	105.43	303700
20200622	104.79	105.50	103.38	105.39	241900
20200623	106.28	106.28	104.77	105.28	228300
20200624	104.43	105.36	103.72	103.81	433900
20200625	103.29	105.46	101.69	105.43	263600
20200626	104.96	106.50	104.03	105.55	924200
20200629	106.06	107.97	105.72	107.05	189300
20200630	106.93	110.02	106.93	109.73	421800
20200701	109.66	110.40	108.72	110.22	247900
20200702	111.16	112.70	111.16	112.66	271400
20200706	113.66	114.31	111.88	112.94	330900
20200707	112.33	113.67	111.88	112.83	346500
20200708	112.48	113.42	110.32	110.66	205900
20200709	110.88	111.84	109.17	111.47	307200
20200710	111.87	112.85	110.14	112.64	244500
20200713	112.65	113.93	110.99	111.15	289000
20200714	111.47	114.16	111.40	113.97	193600
20200715	115.08	115.91	114.19	115.53	326900
20200716	115.66	116.11	114.45	114.88	252900
20200717	115.62	117.30	114.98	117.00	249000
20200720	117.00	117.34	115.89	116.89	183200
20200721	117.17	117.46	115.30	115.80	394300
20200722	115.87	116.59	115.05	116.11	414600
20200723	116.01	116.83	115.71	116.06	286700
20200724	116.60	117.38	116.00	116.46	244700
20200727	116.44	118.03	116.11	117.44	281800
20200728	117.75	117.75	115.76	116.02	208600
20200729	116.68	117.36	115.31	116.77	251200
20200730	115.73	116.87	114.70	115.88	359800
20200731	113.02	115.87	109.31	113.22	668100
20200803	114.84	117.62	112.88	116.62	292900
20200804	116.91	118.12	116.19	116.58	233100
20200805	117.51	118.60	116.19	116.33	164700
20200806	116.78	118.05	114.68	115.64	246500
20200807	115.06	117.32	114.77	117.20	202300
20200810	117.53	117.53	114.89	114.99	204700
20200811	115.99	117.30	114.53	114.73	214100
20200812	114.91	116.53	114.74	116.06	171800
20200813	115.23	117.42	115.23	116.48	213800
20200814	115.86	117.59	115.68	116.45	134600
20200817	117.09	117.86	115.98	116.22	160500
20200818	115.88	116.60	114.76	115.86	171500
20200819	116.66	117.32	115.30	115.67	145600
20200820	115.05	116.10	114.60	115.53	159400
20200821	115.11	116.32	114.40	115.78	199200
20200824	116.17	117.70	116.17	117.06	224000
20200825	117.49	117.49	115.90	116.10	114400
20200826	115.96	116.96	115.54	116.56	120000
20200827	116.59	118.55	116.46	117.99	209800
20200828	117.64	117.64	115.97	116.10	295200
20200831	116.54	117.11	115.76	116.36	182500
20200901	115.91	117.59	115.91	117.45	133900
20200902	117.69	120.34	116.93	120.16	153800
20200903	120.18	120.18	116.46	117.12	227200
20200904	117.98	118.23	114.49	116.68	224200
20200908	116.10	116.10	114.05	114.07	164600
20200909	114.64	116.59	114.64	115.87	154000
20200910	116.14	116.87	114.71	115.18	253500
20200911	115.86	116.67	115.12	116.33	124600
20200914	117.32	118.00	116.44	117.03	129000
20200915	117.39	117.74	116.09	116.30	125600
20200916	117.53	117.53	115.55	115.75	232000
20200917	114.50	115.23	113.10	113.97	354500
20200918	114.58	114.74	112.27	113.06	555700
20200921	111.65	112.08	109.90	111.50	251500
20200922	112.01	112.70	111.61	112.37	292400
20200923	112.24	112.56	109.79	110.21	172300
20200924	109.98	111.23	109.25	110.33	274300
20200925	109.55	110.65	109.55	110.17	254100
20200928	111.23	112.26	110.12	110.43	230000
20200929	110.14	111.40	109.83	110.69	230000
20200930	111.32	112.10	110.57	111.26	200500
20201001	111.50	113.00	111.20	111.75	166000
20201002	110.38	112.22	110.38	110.91	166800
20201005	111.41	112.96	111.27	112.58	151300
20201006	113.03	113.91	111.96	112.59	224000
20201007	113.11	114.17	112.53	113.01	173200
20201008	113.81	114.78	113.54	114.52	138000
20201009	116.09	116.36	114.19	114.80	148700
20201012	115.04	116.79	114.70	116.01	138100
20201013	115.71	116.87	115.24	115.54	159000
20201014	115.48	116.00	114.05	114.44	98900
20201015	112.75	114.59	112.26	114.34	116900
20201016	114.71	115.22	114.19	114.35	97700
20201019	114.64	114.64	112.61	113.17	113700
20201020	114.06	115.54	113.24	114.95	192600
20201021	115.26	116.72	115.26	115.72	133700
20201022	115.87	116.45	114.74	116.28	164100
20201023	116.71	116.93	115.46	116.32	105600
20201026	115.33	115.47	113.94	115.44	114100
20201027	115.51	115.53	113.97	114.01	125000
20201028	112.49	112.99	110.66	110.75	170500
20201029	110.71	111.50	108.78	111.34	279100
20201030	114.60	115.11	111.93	112.48	377900
20201102	113.54	116.62	113.05	116.52	215600
20201103	116.82	119.74	116.66	117.87	242400
20201104	118.30	118.32	116.43	117.36	150600
20201105	118.90	121.36	118.73	121.17	185500
20201106	121.84	122.85	120.74	121.85	220300
20201109	125.81	127.04	120.38	121.43	336500
20201110	121.64	126.98	121.21	125.80	326100
20201111	125.94	125.94	122.61	123.50	194700
20201112	122.48	123.44	120.85	122.51	126300
20201113	123.08	124.22	122.34	123.30	126300
20201116	124.49	125.20	123.79	125.06	207400
20201117	124.47	126.29	123.92	125.56	191200
20201118	125.63	126.05	124.19	124.58	173100
20201119	124.91	125.81	124.22	125.43	213900
20201120	125.71	126.54	125.39	126.00	237300
20201123	126.25	127.29	124.61	125.06	182300
20201124	126.35	126.65	125.08	126.07	237200
20201125	126.66	126.66	123.99	124.50	136100
20201127	124.76	125.50	124.30	125.44	67800
20201130	125.00	125.13	123.91	124.53	204600
20201201	125.35	126.76	124.63	126.01	165800
20201202	125.56	126.24	123.94	124.47	133800
20201203	124.29	125.31	123.38	124.09	138700
20201204	123.70	125.99	123.70	125.87	144600
20201207	126.18	127.16	125.83	126.81	115000
20201208	126.47	129.05	126.13	127.36	162100
20201209	127.30	128.34	126.84	127.70	144800
20201210	127.64	129.23	127.19	128.62	247100
20201211	127.76	129.24	127.76	128.60	165800
20201214	129.20	130.12	126.39	126.59	205800
20201215	126.74	128.80	126.49	128.42	158200
20201216	129.14	129.88	128.36	129.24	265400
20201217	129.43	131.80	129.15	131.26	297700
20201218	132.10	132.76	131.75	132.20	656300
20201221	130.90	133.09	129.64	132.98	211700
20201222	132.74	134.29	132.11	132.60	257300
20201223	132.62	133.83	132.55	132.63	191600
20201224	133.09	134.44	132.74	133.78	84200
20201228	134.26	135.20	133.15	133.76	100400
20201229	134.34	134.81	132.93	133.39	94400
20201230	133.99	135.42	133.54	134.46	99000
20201231	134.83	135.38	133.69	134.95	169800
20210104	134.00	136.02	131.79	132.10	315700
20210105	132.23	133.38	131.65	131.81	260500
20210106	132.32	136.02	132.32	135.77	289300
20210107	135.57	138.02	134.58	137.72	192400
20210108	137.59	138.63	135.81	137.10	140600
20210111	137.53	137.89	136.42	136.83	115300
20210112	136.85	137.26	135.15	136.19	199200
20210113	136.00	137.60	134.21	136.62	245000
20210114	136.54	138.72	135.57	137.48	181200
20210115	137.07	139.33	136.41	136.87	149300
20210119	137.60	138.63	135.31	135.32	222300
20210120	135.78	138.76	135.54	138.63	254100
20210121	138.28	139.13	136.06	136.16	208300
20210122	135.91	136.42	135.17	136.23	227800
20210125	136.20	137.94	135.90	137.59	187100
20210126	137.81	138.38	135.49	137.24	125900
20210127	135.93	135.93	131.60	131.70	186900
20210128	132.52	134.22	132.06	133.68	165800
20210129	132.87	133.79	130.29	131.43	377800
20210201	132.57	132.83	130.28	132.53	184700
20210202	133.48	136.52	133.18	135.35	193000
20210203	134.58	135.71	133.82	134.98	134700
20210204	134.54	136.79	133.43	136.40	251100
20210205	137.84	139.10	137.11	139.03	177500
20210208	139.61	140.35	138.90	140.33	171200
20210209	140.31	141.23	139.58	140.52	183000
20210210	141.34	142.43	140.86	141.59	151100
20210211	141.83	142.65	140.41	141.31	195800
20210212	140.73	143.08	140.73	142.95	105300
20210216	142.93	143.04	141.24	141.93	175300
20210217	142.08	142.51	140.80	141.55	200700
20210218	140.97	141.52	139.35	139.35	208700
20210219	136.96	136.96	130.08	130.71	492900
20210222	129.73	129.85	126.02	127.60	347100
20210223	126.34	127.23	125.31	126.79	490700
20210224	126.77	127.54	126.32	127.27	213000
20210225	127.28	129.39	127.28	128.79	378600
20210226	129.54	130.04	128.06	128.56	386500
20210301	129.26	130.47	128.37	129.08	283000
20210302	128.93	129.14	127.97	128.84	367700
20210303	128.86	130.65	128.00	129.53	220400
20210304	129.37	130.37	128.62	128.89	493600
20210305	129.62	132.58	128.90	132.53	204700
20210308	133.27	136.87	132.54	136.11	230600
20210309	137.07	139.04	136.08	136.09	251500
20210310	136.61	138.49	136.34	137.76	150700
20210311	137.57	138.79	137.13	137.76	169100
20210312	138.38	139.60	137.64	139.14	219000
20210315	140.13	141.37	139.37	140.48	356200
20210316	140.07	140.45	137.71	138.87	280700
20210317	138.29	140.10	137.76	139.64	180900
20210318	139.70	140.82	139.30	139.87	174100
20210319	140.41	140.68	137.43	137.69	615000
20210322	137.36	140.21	136.66	139.95	247700
20210323	138.90	140.91	138.53	139.14	330100
20210324	139.52	142.66	139.52	140.19	300800
20210325	139.76	141.57	138.82	140.82	265600
20210326	141.34	143.14	140.54	143.14	286800
20210329	142.57	144.21	141.73	143.09	272200
20210330	142.66	142.73	140.95	141.42	247900
20210331	141.37	141.81	139.59	140.03	408600
20210401	140.34	142.31	139.74	142.20	228200
20210405	143.27	143.27	141.68	143.01	196100
20210406	142.37	144.30	141.66	144.28	206100
20210407	143.59	143.81	141.72	141.92	188000
20210408	142.13	142.29	140.54	142.01	158700
20210409	142.74	143.61	141.62	143.52	151400
20210412	143.00	144.68	143.00	144.51	100800
20210413	144.90	145.30	143.75	144.63	160800
20210414	142.82	144.45	142.82	144.12	185100
20210415	145.22	146.18	144.34	145.49	184800
20210416	147.41	147.85	145.86	146.36	322600
20210419	146.51	148.05	146.04	147.97	203900
20210420	145.29	149.00	144.97	148.67	190300
20210421	148.41	150.59	148.41	150.18	191200
20210422	150.26	150.26	148.20	148.33	278400
20210423	148.55	149.98	148.09	149.69	188100
20210426	149.99	150.41	149.15	149.17	193600
20210427	148.73	150.29	148.12	150.26	214900
20210428	150.05	151.68	149.67	149.74	192000
20210429	150.06	150.76	149.03	149.55	226400
20210430	148.63	150.56	146.55	149.44	365700
20210503	150.77	151.80	150.36	151.07	212900
20210504	151.50	154.72	151.50	153.61	206800
20210505	153.89	153.89	151.99	152.78	186400
20210506	152.73	155.20	152.24	155.09	240600
20210507	154.13	156.49	154.13	156.12	187100
20210510	156.30	157.52	153.97	154.06	226300
20210511	153.14	154.24	152.32	152.59	299700
20210512	152.21	153.14	150.23	150.23	164100
20210513	150.02	153.88	149.96	153.21	308900
20210514	153.56	153.88	151.78	152.14	174000
20210517	151.72	152.69	150.84	151.72	136800
20210518	152.01	152.60	149.49	149.55	172500
20210519	148.63	149.66	147.25	148.18	161400
20210520	147.91	149.24	147.68	148.38	123200
20210521	148.56	149.21	147.52	148.27	134900
20210524	149.10	149.36	147.60	147.90	143000
20210525	148.28	148.75	146.13	146.38	199200
20210526	147.15	148.03	145.83	146.51	113600
20210527	147.27	147.79	145.15	145.43	172600
20210528	145.95	146.16	145.09	145.97	146900
20210601	146.63	147.45	145.27	145.54	173000
20210602	145.51	146.54	143.80	144.33	282800
20210603	144.15	144.79	143.42	144.08	224500
20210604	144.71	144.93	143.46	144.23	151900
20210607	144.20	144.76	140.74	141.22	184800
20210608	141.23	141.61	139.83	141.48	182900
20210609	141.27	141.91	140.35	140.87	174100
20210610	141.09	143.73	140.93	143.67	216100
20210611	143.94	144.92	142.93	144.50	152900
20210614	144.67	144.67	141.77	142.18	223600
20210615	142.23	143.59	142.06	143.02	214200
20210616	143.13	143.87	141.14	141.32	168400
20210617	141.46	142.29	138.69	140.22	157900
20210618	139.47	140.61	138.64	138.82	280400
20210621	139.70	140.90	138.89	140.29	229800
20210622	140.60	141.36	139.87	140.34	207400
20210623	140.10	140.87	138.82	138.89	227600
20210624	139.65	139.65	138.52	138.90	142300
20210625	138.90	140.20	138.83	139.64	635000
20210628	139.79	140.13	138.46	139.43	218600
20210629	139.53	140.68	138.78	139.00	151900
20210630	139.04	140.63	139.01	139.56	186500
20210701	139.82	140.41	139.62	139.83	225500
20210702	140.19	140.65	138.78	139.13	121900
20210706	139.12	139.59	137.38	138.77	273400
20210707	138.55	140.17	138.55	139.74	219900
20210708	138.67	139.32	137.74	138.00	154200
20210709	138.58	139.99	138.49	139.89	229800
20210712	139.54	139.73	138.77	139.14	174300
20210713	138.93	139.92	137.10	137.24	223600
20210714	137.41	137.88	136.75	137.18	179900
20210715	136.50	137.74	136.07	137.30	155500
20210716	137.74	139.07	137.14	137.77	177700
20210719	136.78	137.66	135.14	135.88	293000
20210720	136.05	138.38	135.75	135.77	294000
20210721	136.05	136.75	134.69	134.82	158000
20210722	135.09	135.49	133.43	133.44	203600
20210723	133.75	135.04	133.07	135.00	175200
20210726	135.51	135.88	134.66	135.47	191000
20210727	134.87	136.99	134.16	135.51	150500
20210728	135.28	136.56	134.99	136.40	165100
20210729	137.46	138.73	137.46	137.78	316000
20210730	134.76	138.24	127.01	127.75	842400
20210802	127.27	129.39	126.53	128.73	453600
20210803	128.75	128.94	126.88	127.83	418300
20210804	127.96	128.60	125.54	125.98	294500
20210805	126.65	127.40	125.85	126.71	158000
20210806	127.29	128.66	127.13	127.63	184600
20210809	127.90	129.93	127.82	129.27	297200
20210810	128.51	130.40	128.16	128.40	200400
20210811	129.38	131.50	128.37	130.81	305900
20210812	131.72	132.77	131.09	131.86	247800
20210813	132.07	133.06	131.69	132.22	174300
20210816	131.77	132.34	130.84	132.06	106300
20210817	131.51	132.31	130.78	132.19	213100
20210818	131.46	132.27	131.22	131.23	110800
20210819	130.62	132.13	130.59	131.59	94000
20210820	131.28	133.08	131.11	132.69	118600
20210823	133.34	133.72	131.67	132.14	111200
20210824	132.13	132.89	131.40	132.14	85700
20210825	132.25	133.67	132.12	133.30	116000
20210826	132.77	132.95	131.66	131.84	133600
20210827	132.52	134.11	132.47	133.70	180600
20210830	134.32	135.39	134.16	134.39	122300
20210831	134.72	135.11	133.39	133.96	154100
20210901	134.27	134.66	133.31	134.17	135800
20210902	134.66	135.38	133.40	134.30	165500
20210903	134.44	135.35	134.09	134.31	112700
20210907	133.88	133.88	130.12	130.27	131600
20210908	129.53	130.54	129.53	130.07	325200
20210909	129.60	130.31	127.57	127.83	227700
20210910	127.47	128.50	125.04	125.06	341000
20210913	124.68	125.34	122.99	123.99	286000
20210914	124.35	125.64	123.45	123.81	184100
20210915	123.13	124.65	122.54	123.86	206600
20210916	123.70	124.54	121.28	121.54	176800
20210917	121.44	121.88	119.97	120.48	568400
20210920	119.02	121.12	118.80	121.10	289200
20210921	121.20	121.56	119.09	119.32	240600
20210922	119.63	120.46	118.70	119.53	235000
20210923	120.09	120.91	119.53	120.26	162100
20210924	119.91	120.66	119.52	119.61	186300
20210927	119.43	120.38	119.05	119.58	206600
20210928	119.62	120.12	118.14	119.29	230800
20210929	119.26	120.54	119.26	119.63	237600
20210930	120.04	120.68	118.56	118.61	314900
20211001	119.10	121.56	117.87	120.83	259800
20211004	120.75	121.89	120.24	121.53	241900
20211005	121.12	122.11	119.87	120.91	249200
20211006	120.32	122.48	119.70	122.34	240900
20211007	122.52	125.26	122.47	123.49	252700
20211008	123.82	124.31	122.99	123.74	217900
20211011	123.70	125.43	123.50	123.80	182800
20211012	123.35	124.43	123.08	123.72	99800
20211013	124.41	126.78	123.99	126.60	266400
20211014	126.72	127.56	126.09	127.22	215400
20211015	127.81	128.45	126.92	127.42	193200
20211018	126.85	127.89	126.12	127.03	221100
20211019	127.35	127.75	126.38	126.76	143300
20211020	126.47	127.96	126.14	127.37	180000
20211021	127.25	128.76	126.51	128.27	139700
20211022	127.81	128.98	126.89	126.98	131600
20211025	127.17	128.08	125.92	127.00	216400
20211026	127.18	127.86	126.10	126.48	188500
20211027	126.09	126.79	124.87	124.91	202200
20211028	124.69	125.93	124.69	125.57	218700
20211029	123.02	125.02	119.51	120.39	696400
20211101	119.59	125.26	119.59	124.77	581800
20211102	125.45	127.70	124.10	126.99	275500
20211103	127.08	128.08	125.76	127.98	290000
20211104	128.10	129.36	127.94	128.13	326300
20211105	129.08	131.23	128.71	131.07	335700
20211108	131.52	131.84	128.65	130.22	255000
20211109	129.80	131.04	129.33	129.94	170700
20211110	130.24	130.66	128.75	129.16	147000
20211111	129.35	130.08	128.31	129.41	131800
20211112	130.01	131.19	129.09	131.06	177500
20211115	131.99	132.57	130.38	131.89	190800
20211116	131.83	135.37	131.57	133.81	402900
20211117	134.05	134.76	132.18	134.01	267100
20211118	133.71	133.71	129.09	129.22	258800
20211119	129.25	131.09	129.06	129.73	212800
20211122	130.08	131.06	128.37	128.38	274500
20211123	128.38	130.25	128.08	129.28	155800
20211124	128.92	129.66	127.30	127.76	220400
20211126	126.10	128.67	125.93	126.20	167000
20211129	127.64	127.88	125.09	125.46	228100
20211130	124.29	125.03	118.93	119.20	593800
20211201	120.28	122.03	116.29	116.41	786000
20211202	116.94	120.31	116.56	119.26	578300
20211203	119.25	120.32	117.25	118.42	368300
20211206	119.84	120.83	118.45	119.83	615400
20211207	120.81	121.35	119.38	119.89	377900
20211208	120.21	120.88	119.07	120.43	210100
20211209	119.83	120.62	118.84	119.14	193600
20211210	119.69	120.58	119.10	119.35	168900
20211213	119.08	120.23	117.89	118.23	217900
20211214	117.62	118.91	116.41	116.57	292600
20211215	116.81	118.68	116.81	117.99	309800
20211216	118.85	119.80	117.88	118.31	242600
20211217	118.31	118.37	115.30	115.51	800100
20211220	114.45	115.59	112.01	113.30	291900
20211221	113.86	115.51	113.34	115.02	301800
20211222	114.68	115.90	114.04	115.02	379800
20211223	115.30	116.18	114.76	115.95	223800
20211227	116.26	119.64	116.22	119.50	352200
20211228	119.98	121.70	119.67	121.05	438700
20211229	121.06	123.10	121.06	121.70	953000
20211230	122.10	123.10	121.22	121.49	237200
20211231	121.22	122.48	120.84	122.08	226400
20220103	122.04	122.60	118.90	120.43	234900
20220104	120.61	122.52	119.57	120.99	337300
20220105	120.85	123.74	120.85	122.66	367600
20220106	123.14	123.60	121.61	122.15	231900
20220107	122.32	123.39	121.57	123.28	335100
20220110	122.55	123.49	121.29	121.65	398400
20220111	121.88	122.58	120.34	122.12	135500
20220112	121.92	122.60	120.23	120.91	206600
20220113	121.28	121.93	119.98	121.28	193200
20220114	120.89	121.10	119.48	120.79	179000
20220118	120.22	121.01	118.45	119.98	232500
20220119	120.37	121.51	120.11	121.03	252600
20220120	120.43	121.91	118.43	118.45	297700
20220121	118.83	119.68	115.45	116.00	351800
20220124	115.22	116.87	113.66	116.65	329300
20220125	114.35	116.56	112.73	115.65	470000
20220126	115.40	117.17	114.04	114.82	1542500
20220127	115.40	117.92	112.31	113.28	263900
20220128	113.46	114.73	112.09	114.68	323100
20220131	114.64	116.96	113.86	116.92	486300
20220201	116.71	118.54	116.07	117.10	214000
20220202	116.70	117.02	116.01	116.62	363600
20220203	116.44	117.38	114.91	115.19	167700
20220204	114.68	116.03	113.66	115.26	242700
20220207	115.62	116.03	114.33	114.74	263300
20220208	115.00	116.44	114.74	116.05	204200
20220209	117.08	117.66	116.20	116.55	295900
20220210	115.52	117.25	113.66	114.61	267100
20220211	115.04	116.44	112.87	113.71	230600
20220214	113.71	114.51	112.44	114.10	266600
20220215	114.66	116.13	113.40	114.10	263000
20220216	114.25	115.08	113.10	114.70	271400
20220217	113.96	116.26	113.32	115.61	362400
20220218	116.28	121.52	114.42	118.44	462300
20220222	118.50	120.18	117.32	119.10	437200
20220223	119.74	120.31	117.60	117.69	321100
